t,x,y,ang,vx,vy,omega,thrust,torque
0.0,-1.0,0.0,0.0,0.0,0.0,0.0,30.988653566111815,-15.301995026171419
0.0025,-0.9999999999928758,3.432523872265118e-06,-4.410304442632469e-06,1.138795941765567e-08,0.002745447129572985,-0.0035267514661439627,30.985004992327585,-15.292808378934875
0.005,-0.9999999998861878,1.3723237889438456e-05,-1.7623658606424467e-05,9.100128564318785e-08,0.005486553020176131,-0.007042444455516468,30.975020176954178,-15.280960321432449
0.0075,-0.9999999994244414,3.085931648148236e-05,-3.961168429386517e-05,3.067256265312734e-07,0.008221740021947309,-0.010546493611302863,30.959355831065828,-15.26652662466716
0.01,-0.9999999981829811,5.48241975503829e-05,-7.034456360975612e-05,7.259962456506012e-07,0.01094959652748096,-0.014038332524151457,30.93860972180571,-15.249580841163212
0.0125,-0.9999999955692072,8.559797890246209e-05,-0.00010979108563039306,1.4157265317143046e-06,0.013668862035881184,-0.017517413172829704,30.913325853912415,-15.230194385564115
0.015,-0.9999999908239552,0.00012315777898274494,-0.00015791869169939134,2.4422486823985293e-06,0.016378413530079454,-0.02098320538487444,30.88399919734154,-15.208436610389857
0.0175,-0.9999999830230113,0.00016747806505071014,-0.00021469351939868144,3.871264931513076e-06,0.01907725305237462,-0.024435196316069743,30.851080000717634,-15.184374877423847
0.02,-0.9999999710787375,0.00021853095166173779,-0.0002800804452404244,5.7678078884448845e-06,0.021764496373223193,-0.027872889947697477,30.814977726873998,-15.1580746251472
0.0225,-0.9999999537417862,0.0002762864720676267,-0.0003540431261230831,8.19620873558159e-06,0.024439362657497115,-0.03129580660060444,30.776064643564695,-15.129599432589051
0.025,-0.9999999296028856,0.00034071282492057983,-0.00043654403959260526,1.1220072185607099e-05,0.027101165040811254,-0.03470348246521747,30.73467909953761,-15.09901107991984
0.0275,-0.999999897094681,0.00041177659845612855,-0.0005275445229475976,1.4902257238438579e-05,0.02974930203617397,-0.03809546914671544,30.69112851351487,-15.066369606077794
0.03,-0.999999854493617,0.0004894429741398277,-0.0006270048112254813,1.9304862899193292e-05,0.032383249698195726,-0.04147133322463585,30.64569210121619,-15.031733363684467
0.0325,-0.9999997999218506,0.000573675911588607,-0.0007348840741048883,2.4489218125762585e-05,0.035002554478461234,-0.044830655826254714,30.598623363360566,-14.99515907147684
0.035,-0.9999997313491853,0.0006644383164189435,-0.0008511404517579708,3.0515875368959958e-05,0.03760682671148353,-0.04817303221313239,30.550152355574067,-14.956701864458124
0.0375,-0.9999996465950164,0.000761692192529201,-0.0009757310896848406,3.744460715125432e-05,0.04019573467596273,-0.051498071380266214,30.50048775929978,-14.91641534194576
0.04,-0.9999995433302826,0.0008653987801913361,-0.0011086121725610103,4.533440520309358e-05,0.04276899918091195,-0.05480539566733328,30.4498187711344,-14.874351613676216
0.0425,-0.9999994190794166,0.0009755186812066013,-0.0012497389571274606,5.424348173992146e-05,0.045326388630629294,-0.05809464038154493,30.398316826490476,-14.83056134410766
0.045,-0.9999992712222902,0.0010920119722698613,-0.0013990658041518097,6.422927251921792e-05,0.04786771452652446,-0.06136545343166813,30.346137172092103,-14.785093795046617
0.0475,-0.9999990969961501,0.0012148383075867536,-0.0015565462094879808,7.53484413661655e-05,0.05039282736748559,-0.06461749497279909,30.293420300540976,-14.737996866711493
0.05,-0.999998893497541,0.0013439570116963375,-0.0017221328342607665,8.76568858996702e-05,0.05290161291382699,-0.06785043706150168,30.240293259032022,-14.689317137332578
0.0525,-0.9999986576842126,0.0014793271633683032,-0.0018957775342007448,0.0001012097442281696,0.055393988782919894,-0.07106396332094707,30.18687084323951,-14.639099901378643
0.055,-0.9999983863770093,0.0016209076713675592,-0.002077431388154125,0.00011606140241758215,0.057869901347401824,-0.07425776861571255,30.133256686430187,-14.587389206491236
0.0575,-0.9999980762617405,0.0017686573428094443,-0.002267044725791264,0.00013226550256245864,0.0603293229094089,-0.07743155873591744,30.079544252979545,-14.534227889198025
0.06,-0.9999977238910298,0.0019225349447653274,-0.0024645671545368212,0.00014987495131639416,0.06277224912660141,-0.08058505009039073,30.02581774466375,-14.479657609471504
0.0625,-0.9999973256861425,0.0020824992597204377,-0.0026699475857437606,0.00016894192875949334,0.06519869666787491,-0.08371796940858173,29.972152927367254,-14.42371888419118
0.065,-0.9999968779387912,0.0022485091354329206,-0.0028831342601327234,0.00018951789749954842,0.06760870107858549,-0.0868300534509386,29.918617885176673,-14.366451119562946
0.0675,-0.9999963768129176,0.0024205235296948942,-0.0031040747725176064,0.00021165361191993924,0.07000231483688497,-0.08992104872749308,29.865273708221686,-14.307892642544514
0.07,-0.9999958183464518,0.002598501550452285,-0.003332716095837554,0.00023539912750140742,0.0723796055843735,-0.09299071122440156,29.8121751200666,-14.24808073132005
0.0725,-0.9999951984530473,0.0027824024917000824,-0.003569004604514949,0.0002608038101570653,0.07474065451574834,-0.09603880613820298,29.75937104994809,-14.1870516448662
0.075,-0.9999945129237943,0.002972185865533026,-0.003812886097158418,0.000287916345530518,0.0770855549134699,-0.09906510761756489,29.706905082193963,-14.124840838385204
0.0775,-0.9999937574289081,0.0031678114306756718,-0.004064305818683107,0.00031678474814482,0.07941441079657756,-0.10206939855533641,29.65448435427628,-14.06233709519446
0.08,-0.9999929275198256,0.003369239114211286,-0.004323208728087605,0.0003474560236542545,0.08172725284818022,-0.10505166723852441,29.601864121148527,-14.000351458796658
0.0825,-0.999992018631748,0.003576428843386507,-0.0045895399888821724,0.00037997615319100645,0.08402405052852999,-0.108012088910363,29.549136744258913,-13.938863680286726
0.085,-0.9999910260857826,0.0037893404979502617,-0.004863245196293473,0.00041439043263019783,0.08630479637429646,-0.11095083370290384,29.496385449508935,-13.87785422722741
0.08750000000000001,-0.9999899450906323,0.004007933964954384,-0.005144270364709324,0.0004507434914033154,0.08856950368671257,-0.11386806681510331,29.44368514239215,-13.817304258593374
0.09,-0.9999887707442391,0.004232169188032861,-0.00543256191556087,0.0004890793107065184,0.09081820442628871,-0.11676394868468329,29.391103151548762,-13.757195600585232
0.0925,-0.9999874980353827,0.004462006211653448,-0.005728066665626903,0.0005294412410928044,0.09305094729595138,-0.11963863515398206,29.338699907006422,-13.697510723289138
0.095,-0.9999861218452356,0.00469740522079201,-0.006030731815745548,0.0005718720194439398,0.09526779599605191,-0.12249227763000524,29.28652955882849,-13.638232718157798
0.0975,-0.9999846369488772,0.004938326576440379,-0.006340504939919082,0.0006164137853237245,0.09746882763614101,-0.12532502323888084,29.23464054138969,-13.579345276287924
0.1,-0.9999830380167669,0.005184730847322428,-0.006657333974798143,0.0006631080967187484,0.09965413128972797,-0.12813701497491622,29.183076088042636,-13.52083266746958
0.10250000000000001,-0.9999813196161795,0.005436578838160077,-0.006981167209532065,0.0007119959451764666,0.10182380667945069,-0.1309283918444486,29.131874700521003,-13.4626797199818
0.105,-0.9999794762126029,0.0056938316148009375,-0.007311953275972564,0.0007631177703533051,0.10397796298118422,-0.13369928900467404,29.08107057704531,-13.404871801110206
0.1075,-0.9999775021711,0.005956450526491842,-0.007649641139218436,0.000816513473987743,0.10611671773662094,-0.13644983789763443,29.0306940027493,-13.347394798361856
0.11,-0.9999753917576374,0.006224397225557504,-0.007994180088489391,0.0008722224333149846,0.10824019586477213,-0.13918016637953512,28.980771705728664,-13.290235101353186
0.1125,-0.9999731391403798,0.0064976336847207125,-0.008345519728317548,0.000930283513941045,0.11034852876367804,-0.14189039884556034,28.931327181724555,-13.233379584347643
0.115,-0.999970738390954,0.006776122212279653,-0.008703609970045533,0.0009907350821948856,0.11244185349437684,-0.14458065635034753,28.88238099019042,-13.176815589419498
0.11750000000000001,-0.9999681834856821,0.00705982546533892,-0.00906840102362054,0.0010536150169777323,0.11452031203987943,-0.14725105672427588,28.833951024250446,-13.120530910221548
0.12,-0.9999654683067857,0.007348706461273477,-0.009439843389674057,0.001118960721128935,0.11658405063253319,-0.14990171468571883,28.78605275683758,-13.06451377633508
0.1225,-0.9999625866435627,0.00764272858758898,-0.00981788785187736,0.0011868091323277363,0.11863321914373728,-0.1525327419494051,28.738699465099575,-13.008752838180385
0.125,-0.999959532193537,0.007941855610327455,-0.01020248546956322,0.0012571967335501535,0.12066797053050181,-0.15514424733102725,28.691902064145033,-12.953237179435963
0.1275,-0.9999562985635833,0.008246051681038338,-0.010593587570612377,0.0013301595621365697,0.12268846024118032,-0.15773633685444718,28.645047815932823,-12.898001501352526
0.13,-0.9999528792731134,0.00855528114820335,-0.010991145757630594,0.0014057315426549157,0.12469469040526206,-0.1603091242725562,28.597643137459325,-12.843075520868556
0.1325,-0.9999492677592344,0.008869508211399986,-0.011395111925810171,0.0014839445869861377,0.12668653979564815,-0.16286272989891276,28.549808120294024,-12.78844732621248
0.135,-0.9999454573798126,0.009188696804786203,-0.011805438267312679,0.0015648301782757667,0.12866391729751162,-0.16539727099666693,28.501651341281097,-12.734105424666994
0.1375,-0.9999414414145266,0.009512810668736986,-0.012222077263773388,0.001648419385597227,0.13062675899361156,-0.16791286188287613,28.45327088510049,-12.680038727223023
0.14,-0.9999372130658857,0.009841813414518175,-0.012644981679061739,0.0017347428776168037,0.13257502550873923,-0.1704096140290194,28.40475527710305,-12.626236533892682
0.14250000000000002,-0.9999327654602147,0.010175668582616957,-0.01307410455228853,0.001823830935330402,0.13450869959055453,-0.17288763615787206,28.356184334277632,-12.572688519646306
0.145,-0.9999280916486082,0.010514339695294061,-0.013509399191050955,0.0019157134639385903,0.13642778390606347,-0.17534703433689322,28.307629941519654,-12.519384720943156
0.1475,-0.9999231846078561,0.01085779030387308,-0.013950819164906907,0.002010420003922714,0.13833229903480426,-0.17778791206827252,28.259156759743572,-12.4663155228239
0.15,-0.9999180372413425,0.0112059840312371,-0.014398318299070413,0.002107979741381158,0.14022228164146752,-0.18021037037577356,28.210822871808052,-12.413471646537364
0.1525,-0.9999126423799193,0.01155888460996151,-0.014851850668320322,0.0022084215176811826,0.14209778281218974,-0.18261450788850536,28.162680371700883,-12.36084413767405
0.155,-0.9999069927827567,0.011916455916474203,-0.015311370591114747,0.002311773838478152,0.1439588665401388,-0.18500042092174657,28.114775901953468,-12.308424354781083
0.1575,-0.9999010811381723,0.01227866200159999,-0.01577683262390402,0.0024180648821505142,0.14580560834727077,-0.1873682035549408,28.067151143819515,-12.256203958434464
0.16,-0.9998949000644386,0.012645467117814687,-0.01624819155563524,0.002527322507695513,0.1476380940302859,-0.1897179477069755,28.019843264355696,-12.204174900745903
0.1625,-0.9998884421105725,0.013016835743505718,-0.01672540240244177,0.0026395742621274083,0.1494564185198613,-0.19204974320885176,27.972885324179884,-12.152329415283205
0.165,-0.9998816997571067,0.01339273260450996,-0.017208420402511252,0.0027548473874169054,0.15126068484319352,-0.19436367787384656,27.926306649351687,-12.100660007383535
0.1675,-0.999874665416844,0.013773122693175748,-0.017697201011126016,0.002873168827007588,0.15305100318075873,-0.1966598375652647,27.880133170518963,-12.049159444841333
0.17,-0.9998673314355956,0.014157971285174197,-0.018191699895869995,0.0029945652319423944,0.1548274900089939,-0.19893830626187267,27.83438773219787,-11.997820748952629
0.17250000000000001,-0.999859690092905,0.014547243954265193,-0.0186918729319964,0.0031190629666305904,0.15659026732132972,-0.2011991661211026,27.78909037480412,-11.946637185899203
0.17500000000000002,-0.9998517336027578,0.014940906585205289,-0.019197676197950746,0.0032466881142832614,0.1583394619206693,-0.20344249754011032,27.744258109871105,-11.895602307468966
0.1775,-0.9998434541142813,0.015338925384817726,-0.019709065971058065,0.0033774664797008736,0.16007520465662212,-0.20566837922606343,27.699486165865956,-11.844752556101115
0.18,-0.9998348437150391,0.015741266760376443,-0.020225998735665125,0.003511421501446341,0.16179752506142997,-0.20787689808571652,27.65446354219525,-11.794118176147887
0.1825,-0.9998258944365989,0.016147897095761338,-0.020748431201827,0.0036485745318228066,0.16350637490398953,-0.21006814777610935,27.60927675882049,-11.74369155472897
0.185,-0.9998165982573458,0.016558782681322146,-0.02127632031125028,0.003788946766986648,0.1652017275867757,-0.2122422199622478,27.564003868504084,-11.693465317774676
0.1875,-0.99980694710287,0.016973889765283665,-0.02180962323238811,0.003932559248863562,0.16688357600331502,-0.2143992043771943,27.518715211011198,-11.643432322613572
0.19,-0.9997969328463502,0.017393184600033623,-0.022348297355683156,0.004079432866699154,0.1685519305867772,-0.21653918888029786,27.473474101099622,-11.593585650854697
0.1925,-0.9997865473089338,0.017816633483749966,-0.022892300288953917,0.004229588358295322,0.17020681753290332,-0.21866225951363555,27.428337456097292,-11.543918601545368
0.195,-0.999775782260114,0.018244202797784326,-0.023441589852919956,0.004383046310978195,0.17184827718195902,-0.22076850055673436,27.38335636835772,-11.4944246845872
0.1975,-0.9997646294181051,0.018675859040181687,-0.023996124076861892,0.004539827162338338,0.1734763625457422,-0.2228579945796365,27.338576627421915,-11.445097614394788
0.2,-0.9997530804502159,0.01911156885568303,-0.02455586119441206,0.004699951200779271,0.175091137966898,-0.224930822494369,27.294039196291898,-11.395931303781824
0.2025,-0.9997411269732224,0.0195512990625271,-0.025120759639471902,0.004863438565906217,0.1766926778989111,-0.22698706360487328,27.24978064583555,-11.34691985806259
0.20500000000000002,-0.9997287605537388,0.019995016676339804,-0.025690778042252334,0.005030309248783126,0.1782810657961636,-0.22902679565544912,27.205833550990434,-11.298057569355413
0.20750000000000002,-0.9997159727085893,0.020442688931374232,-0.026265875225433437,0.005200583092082606,0.17985639310437623,-0.23105009487776262,27.162226852113374,-11.249338911078514
0.21,-0.999702754905178,0.02089428329934126,-0.026846010200439908,0.005374279790150267,0.18141875834260007,-0.2330570360364665,27.11898618452908,-11.200758532627184
0.2125,-0.9996890985618606,0.021349767506049503,-0.027431142163828904,0.005551418889002176,0.18296826626869797,-0.2350476924734778,27.07613417906449,-11.152311254223479
0.215,-0.9996749950483147,0.02180910954605417,-0.028021230493786953,0.005732019786271596,0.18450502712096292,-0.23702213615095657,27.03369073611105,-11.103992061930382
0.2175,-0.9996604356859108,0.02227227769549677,-0.02861623474673273,0.005916101731118924,0.1860291559291639,-0.23898043769302635,26.991673275534325,-11.05579610282185
0.22,-0.9996454117480836,0.022739240523301573,-0.029216114654022605,0.006103683824116725,0.18754077188889784,-0.24092266642627552,26.95009696454826,-11.00771868030282
0.2225,-0.9996299144607037,0.023209966900880123,-0.029820830118755994,0.006294785017119935,0.18903999779366357,-0.24284889041907765,26.908974925484795,-10.95975524957159
0.225,-0.9996139350024493,0.023684426010481735,-0.03043034121267755,0.0064894241131297275,0.19052695951956175,-0.24475917651976611,26.868317592097522,-10.91190153282572
0.2275,-0.9995974645051867,0.024162587352055603,-0.031044608173207883,0.006687619759761226,0.19200178534992032,-0.24665359042126433,26.82768785932675,-10.864217413357265
0.23,-0.9995804940587107,0.024644420609535637,-0.03166359141905106,0.006889386956589401,0.1934644942123576,-0.24853221145164447,26.786763558171245,-10.816751262681938
0.2325,-0.9995630147190464,0.025129895413517143,-0.032287251580921356,0.007094737712635441,0.19491502452547105,-0.2503951298863643,26.745630041161753,-10.769496586103154
0.23500000000000001,-0.9995450175120322,0.02561898126734888,-0.03291554951306358,0.00730368417063154,0.1963533360689957,-0.252242434275136,26.704364369819203,-10.722447039316178
0.23750000000000002,-0.9995264934330031,0.02611164759791281,-0.03354844628898755,0.007516238592781658,0.19777940788575232,-0.25407421148096304,26.6630360523381,-10.67559642686902
0.24,-0.9995074334465095,0.026607863801392403,-0.03418590319729958,0.007732413347168931,0.19919323637053224,-0.2558905467187237,26.621707716516806,-10.628938700540157
0.2425,-0.9994878284860673,0.027107599284476373,-0.034827881737629796,0.007952220894801203,0.20059483352950583,-0.2576915235932823,26.580435723606605,-10.582467957636073
0.245,-0.9994676694539419,0.027610823501405413,-0.035474343616654164,0.008175673777283395,0.20198422539518102,-0.25947722413711205,26.539270728252838,-10.536178439214742
0.2475,-0.999446947220961,0.028117505987233723,-0.03612525074420993,0.008402784605103101,0.2033614505832476,-0.26124772884741265,26.498258189252,-10.490064528238566
0.25,-0.9994256526263555,0.028627616387644435,-0.0367805652295032,0.00863356604651389,0.20472655897884182,-0.2630031167227084,26.457438835430885,-10.444120747662911
0.2525,-0.9994037764776291,0.02914112448562832,-0.03744024937740738,0.008868030816999264,0.2060796105408567,-0.2647434652989125,26.41684909058093,-10.398341758465515
0.255,-0.9993813095504519,0.029658000225307856,-0.038104265684850994,0.009106191669299008,0.2074206742139199,-0.26646885068484644,26.37652146103313,-10.352722357621563
0.2575,-0.9993582425885791,0.030178213733164032,-0.03877257683729375,0.00934806138397876,0.20874982693857105,-0.26817934759720186,26.336484889147528,-10.307257476030715
0.26,-0.9993345663037925,0.030701735336900567,-0.0394451457052892,0.009593652760522924,0.21006715275099863,-0.2698750293949366,26.296765075703103,-10.261942176400883
0.2625,-0.9993102713758636,0.03122853558215958,-0.040121935341132696,0.009842978608930644,0.2113727419644549,-0.27155596811309574,26.25738477391291,-10.216771651094563
0.265,-0.9992853484525374,0.031758585247283935,-0.04080290897559317,0.010096051741794256,0.2126666904251568,-0.27322223449605,26.21836405755116,-10.171741219942671
0.2675,-0.9992597881495344,0.03229185535630425,-0.04148803001472729,0.010352884966839566,0.2139490988361117,-0.2748738980301467,26.17972056546041,-10.126846328030865
0.27,-0.9992335810505725,0.03282831719031293,-0.04217726203677449,0.010613491079907368,0.21522007214288183,-0.27651102697576746,26.141469724508685,-10.082082543463967
0.2725,-0.999206717707404,0.03336794229737318,-0.042870568789131404,0.010877882858355743,0.21647971897582494,-0.27813368839878905,26.103624952886154,-10.037445555112459
0.275,-0.9991791886398699,0.03391070250109808,-0.043567914185404163,0.011146073054863011,0.21772815114382932,-0.2797419482014457,26.066196764826678,-9.99293126136809
0.2775,-0.9991509843359835,0.034456569907685364,-0.04426926230256342,0.01141807437975789,0.21896548290526616,-0.28133587117356895,26.02880085167788,-9.94856880179058
0.28,-0.999122095257508,0.035005516788828454,-0.044974577387747516,0.011693895113077548,0.22019173241888765,-0.2829155286567183,25.99116636807023,-9.904380883092669
0.28250000000000003,-0.999092511849756,0.03555751537703918,-0.04568382387276698,0.011973540128203244,0.22140685019520315,-0.2844809970449507,25.953368603461225,-9.860363261668384
0.28500000000000003,-0.9990622245453746,0.03611253780465254,-0.04639696637895222,0.012257014686648667,0.2226108055783008,-0.2860323515605938,25.91547551388091,-9.816511728400492
0.28750000000000003,-0.9990312237634139,0.036670556148590834,-0.04711396971423783,0.01254432440681749,0.2238035848904141,-0.28756966626516545,25.877548374589217,-9.772822113983574
0.29,-0.9989994999084709,0.03723154247069605,-0.04783479887027571,0.012835475234671764,0.22498518974187248,-0.2890930140714924,25.83964237544126,-9.729290293706256
